Temp,L
0.01,2500.9
2,2496.2
4,2491.4
10,2477.2
14,2467.7
18,2458.3
20,2453.5
25,2441.7
30,2429.8
34,2420.3
40,2406
44,2396.4
50,2381.9
54,2372.3
60,2357.7
70,2333
80,2308
90,2282.5
96,2266.9
100,2256.4
110,2229.6
120,2202.1
140,2144.3
160,2082
180,2014.2
200,1939.7
220,1857.4
240,1765.4
260,1661.6
280,1543
300,1404.6
320,1238.4
340,1027.3
360,719.8
373.946,0
